# ran on: 2022-08-08
# method = continuous (https://github.com/Elliot-Wadge/MagnetizationFitting)
# Ms = 1375.83 kA/m
# Mr/Ms = 0.2803
# J1 = 2.6907 +/- 0.0037 mJ/m^2
# J2 = 1.6889 +/- 0.0038 mJ/m^2
# A = 3.0000 +/- 0.0361 * 10 pJ/m
# theta from data = 147.44 degrees
# theta from model = 120.00 degrees
# average theta = 133.72 degrees
# measured saturation field = 3.030 T
# model saturation field = 2.950 T
# red chisq = 6.733 +/- 0.054
# standard deviation = 0.001411
# 
# Field (T),Mag (Data) (kA/m),Mag (Model) (kA/m),Residuals(kA/m)
0.000000000000000000e+00,3.856474763673552464e-01,4.387840007245095708e-01,-5.313652435715435218e-02
1.000000000000000021e-02,4.897155754710322828e-01,4.655569728921906125e-01,2.415860257884167375e-02
2.000000000000000042e-02,5.203906443067314314e-01,4.888709424668479242e-01,3.151970183988352103e-02
2.999999999999999889e-02,5.380848061069982702e-01,5.097123063117535713e-01,2.837249979524470583e-02
4.000000000000000083e-02,5.522580029270662827e-01,5.286862056139368660e-01,2.357179731312941673e-02
5.000000000000000278e-02,5.668129911305291868e-01,5.461854289364637127e-01,2.062756219406550184e-02
5.999999999999999778e-02,5.800529201245203659e-01,5.624819791276672865e-01,1.757094099685310717e-02
7.000000000000000666e-02,5.890507226363441706e-01,5.777677517147964403e-01,1.128297092154771815e-02
8.000000000000000167e-02,6.025027579544436351e-01,5.921907594528932339e-01,1.031199850155040121e-02
8.999999999999999667e-02,6.112460328773373641e-01,6.058757326126701370e-01,5.370300264667206280e-03
1.000000000000000056e-01,6.202014141243393786e-01,6.189745608767194263e-01,1.226853247619965302e-03
1.100000000000000006e-01,6.317444925254636079e-01,6.314365886519417437e-01,3.079038735219050875e-04
1.199999999999999956e-01,6.422694605708676452e-01,6.433850332200375943e-01,-1.115572649169960847e-03
1.300000000000000044e-01,6.531337987348450058e-01,6.548697694459055807e-01,-1.735970711060626052e-03
1.400000000000000133e-01,6.602226443296933533e-01,6.659333808344447547e-01,-5.710736504751384897e-03
1.499999999999999944e-01,6.701112934027723123e-01,6.766122219573450502e-01,-6.500928554572764882e-03
1.600000000000000033e-01,6.818240568631831477e-01,6.869376216746638786e-01,-5.113564811480733434e-03
1.700000000000000122e-01,7.050329830902676287e-01,6.969368021316516559e-01,8.096180958615941531e-03
1.799999999999999933e-01,7.172972229933602950e-01,7.066335932700015254e-01,1.066362972335868631e-02
1.900000000000000022e-01,7.234103794973103518e-01,7.160489956769165998e-01,7.361383820393684399e-03
2.000000000000000111e-01,7.373290487284480665e-01,7.252016292377027051e-01,1.212741949074536141e-02
2.099999999999999922e-01,7.467934851533103435e-01,7.341080946128449858e-01,1.268539054046538377e-02
2.200000000000000011e-01,7.547307560445921659e-01,7.427832673302386945e-01,1.194748871435353209e-02
2.300000000000000100e-01,7.623710780821224553e-01,7.512405391945874422e-01,1.113053888753496104e-02
2.399999999999999911e-01,7.692053960880408381e-01,7.594920180768907070e-01,9.713378011150120700e-03
2.500000000000000000e-01,7.739610721176970465e-01,7.675486945075604694e-01,6.412377610136602187e-03
2.600000000000000089e-01,7.811347602421887526e-01,7.754205815571216798e-01,5.714178685066979152e-03
2.700000000000000178e-01,7.861025425959535795e-01,7.831168330458153637e-01,2.985709550138211914e-03
2.800000000000000266e-01,7.929368606018719623e-01,7.906458440383828945e-01,2.291016563489048277e-03
2.899999999999999800e-01,7.993045446947518728e-01,7.980153367556913624e-01,1.289207939060482916e-03
2.999999999999999889e-01,8.043995908429816266e-01,8.052324344021684066e-01,-8.328435591868503561e-04
3.099999999999999978e-01,8.095370582560330597e-01,8.123037249181356279e-01,-2.766666662102488811e-03
3.200000000000000067e-01,8.139957854319376240e-01,8.192353162836750746e-01,-5.239530851737359517e-03
3.300000000000000155e-01,8.242662258884115856e-01,8.260328846997200269e-01,-1.766658811308413840e-03
3.400000000000000244e-01,8.327125519575536705e-01,8.327017167334762604e-01,1.083522407735346264e-05
3.499999999999999778e-01,8.347532670386228482e-01,8.392467463249919657e-01,-4.493479286369109725e-03
3.599999999999999867e-01,8.418421126334713067e-01,8.456725873981868480e-01,-3.830474764715528259e-03
3.699999999999999956e-01,8.449433593350823557e-01,8.519930050771276075e-01,-7.049645742045257922e-03
3.800000000000000044e-01,8.531775790801159332e-01,8.581757409517123403e-01,-4.998161871596452227e-03
3.900000000000000133e-01,8.592907355840659900e-01,8.642535674319635763e-01,-4.962831847897600235e-03
4.000000000000000222e-01,8.633676713765754407e-01,8.702666841882905624e-01,-6.899012811715152065e-03
4.099999999999999756e-01,8.675718709635500403e-01,8.761564754038150271e-01,-8.584604440264936506e-03
4.199999999999999845e-01,8.742365039101817059e-01,8.819494525083224623e-01,-7.712948598140696548e-03
4.299999999999999933e-01,8.793315500584114597e-01,8.876486489995499829e-01,-8.317098941138509338e-03
4.400000000000000022e-01,8.859113404753999887e-01,8.932569298349193332e-01,-7.345589359519307145e-03
4.500000000000000111e-01,8.895216423548709672e-01,8.987770118707935074e-01,-9.255369515922469079e-03
4.600000000000000200e-01,8.898655068430730841e-01,9.042114746815533843e-01,-1.434596783848029848e-02
4.699999999999999734e-01,8.973785650861383356e-01,9.095627703768969230e-01,-1.218420529075861687e-02
4.799999999999999822e-01,9.020069773213298392e-01,9.148332325306572921e-01,-1.282625520932746503e-02
4.899999999999999911e-01,9.122774177778038007e-01,9.200250843172982362e-01,-7.747666539494472808e-03
5.000000000000000000e-01,9.168209874833516126e-01,9.251404459401680880e-01,-8.319458456816405945e-03
5.100000000000000089e-01,9.220432974260464043e-01,9.301813414252934065e-01,-8.138043999246948393e-03
5.200000000000000178e-01,9.270110797798112312e-01,9.351497048456033356e-01,-8.138625065792133920e-03
5.300000000000000266e-01,9.268034678253317393e-01,9.400473860327664966e-01,-1.324391820743482315e-02
5.400000000000000355e-01,9.300743995862293945e-01,9.448761558272068539e-01,-1.480175624097747160e-02
5.500000000000000444e-01,9.383934618609063305e-01,9.496377109110544223e-01,-1.124424905014810225e-02
5.600000000000000533e-01,9.414522872976958112e-01,9.543336782637871218e-01,-1.288139096609124297e-02
5.699999999999999512e-01,9.492622943945127068e-01,9.589656192759030695e-01,-9.703324881390359286e-03
5.799999999999999600e-01,9.545694468668507460e-01,9.635350335521439824e-01,-8.965586685293194802e-03
5.899999999999999689e-01,9.552951027384479765e-01,9.680433624324155106e-01,-1.274825969396753064e-02
5.999999999999999778e-01,9.603901488866777303e-01,9.724919922555822493e-01,-1.210184336890443059e-02
6.099999999999999867e-01,9.643398208847224762e-01,9.768822573887196992e-01,-1.254243650399718482e-02
6.199999999999999956e-01,9.705378199183157806e-01,9.812154430420959583e-01,-1.067762312378022806e-02
6.300000000000000044e-01,9.733845390309967538e-01,9.854927878881377667e-01,-1.210824885714105112e-02
6.400000000000000133e-01,9.792431679460165128e-01,9.897154865007948832e-01,-1.047231855477836343e-02
6.500000000000000222e-01,9.848472692721064181e-01,9.938846916301655732e-01,-9.037422358059151589e-03
6.600000000000000311e-01,9.897302090962277754e-01,9.980015163257804911e-01,-8.271307229552792017e-03
6.700000000000000400e-01,9.893953333472832457e-01,1.002067035920691573e+00,-1.267170257340827916e-02
6.800000000000000488e-01,9.950418559381948302e-01,1.006082289887381798e+00,-1.104043394918691710e-02
6.899999999999999467e-01,9.998399532326728290e-01,1.010048283575489370e+00,-1.020833034281650765e-02
6.999999999999999556e-01,1.001923089578563797e+00,1.013965989840440063e+00,-1.204290026187622778e-02
7.099999999999999645e-01,1.006000025371073248e+00,1.017836350571266202e+00,-1.183632520019298369e-02
7.199999999999999734e-01,1.012537394523239875e+00,1.021660278125156029e+00,-9.122883601916039614e-03
7.299999999999999822e-01,1.015172007311812674e+00,1.025438656675629723e+00,-1.026664936381714403e-02
7.399999999999999911e-01,1.018145990218958685e+00,1.029172343480629248e+00,-1.102635326167055244e-02
7.500000000000000000e-01,1.019677650122167822e+00,1.032862170076296549e+00,-1.318451995412880939e-02
7.600000000000000089e-01,1.025833227890939225e+00,1.036508943401709626e+00,-1.067571551077025477e-02
7.700000000000000178e-01,1.031097959098455918e+00,1.040113446859425528e+00,-9.015487760969656192e-03
7.800000000000000266e-01,1.036235426511507240e+00,1.043676441316272685e+00,-7.441014804765506974e-03
7.900000000000000355e-01,1.036748976058996297e+00,1.047198666048484883e+00,-1.044968998948870437e-02
8.000000000000000444e-01,1.037517053195415206e+00,1.050680839634935193e+00,-1.316378643952005774e-02
8.100000000000000533e-01,1.042060622900963018e+00,1.054123660801939755e+00,-1.206303790097670338e-02
8.199999999999999512e-01,1.046519350076867694e+00,1.057527809222816195e+00,-1.100845914594836793e-02
8.299999999999999600e-01,1.052802191640104468e+00,1.060893931026311687e+00,-8.091739386207214349e-03
8.399999999999999689e-01,1.055394383163855476e+00,1.064222678889328755e+00,-8.828295725473311525e-03
8.499999999999999778e-01,1.063204390260672261e+00,1.067514686334922969e+00,-4.310296074250799005e-03
8.599999999999999867e-01,1.061172663918861003e+00,1.070770553028477678e+00,-9.597889109616801820e-03
8.699999999999999956e-01,1.066607080185663969e+00,1.073990875554721613e+00,-7.383795369057808040e-03
8.800000000000000044e-01,1.067714527440656314e+00,1.077176243505272968e+00,-9.461716064616538038e-03
8.900000000000000133e-01,1.070179455169942173e+00,1.080327222349126925e+00,-1.014776717918472980e-02
9.000000000000000222e-01,1.073238280606731543e+00,1.083444363582268810e+00,-1.020608297553720137e-02
9.100000000000000311e-01,1.080624075055331978e+00,1.086528205210250064e+00,-5.904130154918201152e-03
9.200000000000000400e-01,1.083173845314261197e+00,1.089579272248420994e+00,-6.405426934159761353e-03
9.300000000000000488e-01,1.086275092015872357e+00,1.092598077190306327e+00,-6.322985174434049387e-03
9.399999999999999467e-01,1.088018858243189779e+00,1.095585120426091352e+00,-7.566262182901687533e-03
9.499999999999999556e-01,1.090186837118723995e+00,1.098540890656777069e+00,-8.354053538053057143e-03
9.599999999999999645e-01,1.097360525243215701e+00,1.101465865270665034e+00,-4.105340027449311778e-03
9.699999999999999734e-01,1.096389330521946093e+00,1.104360510746780655e+00,-7.971180224834560277e-03
9.799999999999999822e-01,1.099193628369805387e+00,1.107225283022540641e+00,-8.031654652735245245e-03
9.899999999999999911e-01,1.105858261316437385e+00,1.110060627824488222e+00,-4.202366508050998754e-03
1.000000000000000000e+00,1.107220236160359583e+00,1.112866981000058875e+00,-5.646744839699149171e-03
1.010000000000000009e+00,1.112484967367876054e+00,1.115644768826653976e+00,-3.159801458777972485e-03
1.020000000000000018e+00,1.114483261184123553e+00,1.118394408305324994e+00,-3.911147121201417193e-03
1.030000000000000027e+00,1.116863346383766276e+00,1.121116307484357311e+00,-4.252961100591048059e-03
1.040000000000000036e+00,1.118310163757331832e+00,1.123810865719456320e+00,-5.500701962124304907e-03
1.050000000000000044e+00,1.119756981130897833e+00,1.126478473938122171e+00,-6.721492807224280393e-03
1.060000000000000053e+00,1.126718562931281031e+00,1.129119514894860066e+00,-2.400951963578967611e-03
1.070000000000000062e+00,1.126129159593406870e+00,1.131734363411834199e+00,-5.605203818427468600e-03
1.080000000000000071e+00,1.128806193646801015e+00,1.134323386603548256e+00,-5.517192956747157817e-03
1.090000000000000080e+00,1.130804487463048513e+00,1.136886944133652211e+00,-6.082456670603733108e-03
1.100000000000000089e+00,1.134372368077698034e+00,1.139425388417652396e+00,-5.053020339954418863e-03
1.110000000000000098e+00,1.140655209640934586e+00,1.141939064829146089e+00,-1.283855188211552442e-03
1.120000000000000107e+00,1.143459507488794102e+00,1.144428311900269835e+00,-9.688044114759035647e-04
1.129999999999999893e+00,1.141427781146982401e+00,1.146893461514510770e+00,-5.465680367528295662e-03
1.139999999999999902e+00,1.142959441050191538e+00,1.149334839085939475e+00,-6.375398035747813566e-03
1.149999999999999911e+00,1.151872401032371984e+00,1.151752763735700125e+00,1.196372966720280558e-04
1.159999999999999920e+00,1.151367840224140737e+00,1.154147548486437191e+00,-2.779708262296421654e-03
1.169999999999999929e+00,1.154808457044325332e+00,1.156519500414562529e+00,-1.711043370237087715e-03
1.179999999999999938e+00,1.159606554338803441e+00,1.158868920809327907e+00,7.376335294754471188e-04
1.189999999999999947e+00,1.162877486099701096e+00,1.161196105326755212e+00,1.681380772945837224e-03
1.199999999999999956e+00,1.162881980469330001e+00,1.163501344138075710e+00,-6.193636687458921580e-04
1.209999999999999964e+00,1.165601435787545936e+00,1.165784922072909069e+00,-1.834862853631078839e-04
1.219999999999999973e+00,1.168023942252010228e+00,1.168047118747648883e+00,-2.317649563859199344e-05
1.229999999999999982e+00,1.168282964210569208e+00,1.170288208710526634e+00,-2.005244499957322714e-03
1.239999999999999991e+00,1.168881356287701401e+00,1.172508461576630578e+00,-3.627105288929192029e-03
1.250000000000000000e+00,1.177242839827200127e+00,1.174708142144326395e+00,2.534697682873726134e-03
1.260000000000000009e+00,1.176271645105930519e+00,1.176887510515499446e+00,-6.158654095689702641e-04
1.270000000000000018e+00,1.174791395206800981e+00,1.179046822211774481e+00,-4.255427004973529395e-03
1.280000000000000027e+00,1.177595693054660053e+00,1.181186328286891518e+00,-3.590635232231342670e-03
1.290000000000000036e+00,1.183242215645571749e+00,1.183306275435386024e+00,-6.405978981432584342e-05
1.300000000000000044e+00,1.186725253730577911e+00,1.185406906097359325e+00,1.318347633218476447e-03
1.310000000000000053e+00,1.187959964780035182e+00,1.187488458551266168e+00,4.715062287690701022e-04
1.320000000000000062e+00,1.191188475276111269e+00,1.189551167027240730e+00,1.637308248870449068e-03
1.330000000000000071e+00,1.195180568538977361e+00,1.191595261801276395e+00,3.585306737701097601e-03
1.340000000000000080e+00,1.195694118086466640e+00,1.193620969283316180e+00,2.073148803150468358e-03
1.350000000000000089e+00,1.197183356724853986e+00,1.195628512106748031e+00,1.554844618105942402e-03
1.360000000000000098e+00,1.200072497102356861e+00,1.197618109215138560e+00,2.454387887218107724e-03
1.370000000000000107e+00,1.199652778823768751e+00,1.199589975946299125e+00,6.280287746964513420e-05
1.379999999999999893e+00,1.201226859991799456e+00,1.201544324113808404e+00,-3.174641220088420977e-04
1.389999999999999902e+00,1.205728008432525922e+00,1.203481362086062934e+00,2.246646346463131768e-03
1.399999999999999911e+00,1.208744412604493501e+00,1.205401294862981976e+00,3.343117741511570078e-03
1.409999999999999920e+00,1.207221741440542173e+00,1.207304324145148877e+00,-8.258270460676898439e-05
1.419999999999999929e+00,1.209389720316076389e+00,1.209190648410888302e+00,1.990719051880631687e-04
1.429999999999999938e+00,1.213763604962337705e+00,1.211060462992627595e+00,2.703141969710186332e-03
1.439999999999999947e+00,1.216780009134305507e+00,1.212913960139197167e+00,3.866048995108208909e-03
1.449999999999999956e+00,1.219414621922878306e+00,1.214751329081966480e+00,4.663292840911718168e-03
1.459999999999999964e+00,1.220182699059297216e+00,1.216572756099099539e+00,3.609942960197566955e-03
1.469999999999999973e+00,1.222223414140366504e+00,1.218378424577998498e+00,3.844989562368088341e-03
1.479999999999999982e+00,1.224518656810365647e+00,1.220168515075992000e+00,4.350141734373684337e-03
1.489999999999999991e+00,1.225710946595001127e+00,1.221943205379336428e+00,3.767741215664893728e-03
1.500000000000000000e+00,1.226309338672133764e+00,1.223702670560590455e+00,2.606668111543202979e-03
1.510000000000000009e+00,1.231319542290719937e+00,1.225447083034416851e+00,5.872459256303068191e-03
1.520000000000000018e+00,1.233020887253216014e+00,1.227176612611866391e+00,5.844274641349775368e-03
1.530000000000000027e+00,1.232601168974627903e+00,1.228891426550553945e+00,3.709742424074159717e-03
1.540000000000000036e+00,1.234981254174270626e+00,1.230591689606213457e+00,4.389564568057360144e-03
1.550000000000000044e+00,1.236809862931231629e+00,1.232277564090363375e+00,4.532298840868178615e-03
1.560000000000000053e+00,1.238086995245510691e+00,1.233949209914041001e+00,4.137785331469681291e-03
1.570000000000000062e+00,1.240679186769261477e+00,1.235606784635106203e+00,5.072402134155229621e-03
1.580000000000000071e+00,1.244459173708019506e+00,1.237250443504457120e+00,7.208730203562372686e-03
1.590000000000000080e+00,1.242809238749603029e+00,1.238880339511046369e+00,3.928899238556660123e-03
1.600000000000000089e+00,1.246758910747647553e+00,1.240496623425749956e+00,6.262287321897696928e-03
1.610000000000000098e+00,1.246593720057989962e+00,1.242099443844116857e+00,4.494276213873084347e-03
1.620000000000000107e+00,1.247786009842625665e+00,1.243688947228046349e+00,4.097062614579358164e-03
1.629999999999999893e+00,1.252244737018530341e+00,1.245265277946409510e+00,6.979459072120748966e-03
1.639999999999999902e+00,1.250637223324935432e+00,1.246828578314675529e+00,3.808645010259836643e-03
1.649999999999999911e+00,1.254714159117445105e+00,1.248378988633544129e+00,6.335170483901054854e-03
1.659999999999999920e+00,1.254209598309213858e+00,1.249916647226641420e+00,4.292951082572220474e-03
1.669999999999999929e+00,1.254935254180811199e+00,1.251441690477292257e+00,3.493563703518918345e-03
1.679999999999999938e+00,1.255491224993121824e+00,1.252954252862347184e+00,2.536972130774528544e-03
1.689999999999999947e+00,1.258168259046515969e+00,1.254454466988272232e+00,3.713792058243699408e-03
1.699999999999999956e+00,1.260760450570267199e+00,1.255942463629484696e+00,4.817986940782505514e-03
1.709999999999999964e+00,1.261189157588112897e+00,1.257418371758609821e+00,3.770785829502990624e-03
1.719999999999999973e+00,1.260472490455773142e+00,1.258882318579046977e+00,1.590171876726035336e-03
1.729999999999999982e+00,1.265143323955786103e+00,1.260334429556801306e+00,4.808894398984765554e-03
1.739999999999999991e+00,1.263620652791834997e+00,1.261774828451582176e+00,1.845824340252803829e-03
1.750000000000000000e+00,1.269139911588281322e+00,1.263203637347179331e+00,5.936274241101824334e-03
1.760000000000000009e+00,1.271732103112032330e+00,1.264620976681153586e+00,7.111126430878637189e-03
1.770000000000000018e+00,1.269021636533073982e+00,1.266026965273845617e+00,2.994671259228327137e-03
1.780000000000000027e+00,1.276407430981674196e+00,1.267421720356736170e+00,8.985710624937994634e-03
1.790000000000000036e+00,1.274842338552901078e+00,1.268805357600171435e+00,6.036980952729653800e-03
1.800000000000000044e+00,1.278198112843442313e+00,1.270177991140467810e+00,8.020121702974404229e-03
1.810000000000000053e+00,1.279899457805937946e+00,1.271539733606426248e+00,8.359724199511751538e-03
1.820000000000000062e+00,1.278079837788234974e+00,1.272890696145262845e+00,5.189141642971979024e-03
1.830000000000000071e+00,1.280035710339660682e+00,1.274230988447972113e+00,5.804721891688447571e-03
1.840000000000000080e+00,1.281609791507691609e+00,1.275560718774150448e+00,6.049072733541134041e-03
1.850000000000000089e+00,1.283947455442512542e+00,1.276879993976281158e+00,7.067461466231333631e-03
1.860000000000000098e+00,1.287091123408945492e+00,1.278188919523513212e+00,8.902203885432160776e-03
1.870000000000000107e+00,1.282641384972298404e+00,1.279487599524770758e+00,3.153785447527739354e-03
1.879999999999999893e+00,1.286675899499986286e+00,1.280776136749888217e+00,5.899762750098247639e-03
1.889999999999999902e+00,1.283626062802454726e+00,1.282054632655189597e+00,1.571430147265109357e-03
1.899999999999999911e+00,1.288212053772824328e+00,1.283323187404510124e+00,4.888866368314107036e-03
1.909999999999999920e+00,1.289107394703708387e+00,1.284581899889975842e+00,4.525494813732496013e-03
1.919999999999999929e+00,1.289111889073337291e+00,1.285830867752985052e+00,3.281021320352253690e-03
